106279  0.333  0.333  0.084     36.63      0.47    4.60  135.21   -0.02    0.00   0.60
106279   37   33   4.16  93.18 400000 816 7 0.49 1.45-0.07  2.90  0.00 0.10 0.00
106280  0.667  0.667 -0.084     24.91      0.59    9.21  148.02   -0.04    0.00   0.60
106280   25   29   2.27  93.23 400000 715 9 0.42 1.16-0.02  2.49  0.00 0.08 0.00
106281  0.667  0.667  0.916     19.40      0.52   10.38  118.94   -0.07    0.00   0.60
106281   26   29   1.64  93.29 400000 815 8 0.42 1.12-0.00  2.39  0.00 0.08 0.00
106285  0.667  0.667  3.916      2.11      0.48   22.97   93.23   -0.17    0.00   0.60
106285   20   21   0.17  93.21 4000001013 8 0.34 0.74-0.06  1.86  0.00 0.06 0.00
106287  0.333  0.333  2.084      7.57      0.48   11.87   80.78   -0.09    0.00   0.60
106287   27   29   0.48  93.18 400000 418 9 0.55 1.27 0.16  2.26  0.00 0.08 0.00
106288  0.333  0.333  1.084     11.89      0.44    7.29   92.36   -0.06    0.00   0.60
106288   31   28   1.19  93.18 400000 515 8 0.41 1.24-0.05  2.66  0.00 0.09 0.00
106293 -0.333 -0.333  1.916      4.15      0.62   11.05   32.51   -0.04    0.00   0.60
106293   29   27   0.29  93.17 400000 817 6 0.36 1.24 0.00  2.33  0.00 0.08 0.00
106294 -0.667 -0.667  2.084      7.16      0.64   14.35   20.28   -0.02    0.00   0.60
106294   29   32   0.42  93.11 400000 716 8 0.39 1.07-0.00  2.14  0.00 0.07 0.00
106295 -0.667 -0.667  1.084     17.48      0.51   10.82   -1.44    0.01    0.00   0.60
106295   23   28   1.64  93.21 400000 814 9 0.41 1.02 0.03  2.35  0.00 0.08 0.00
106296 -0.333 -0.333  0.916     15.76      0.39    6.62    8.93   -0.01    0.00   0.60
106296   28   28   1.90  93.10 400000 814 9 0.46 1.18 0.05  2.72  0.00 0.09 0.00
106297 -1.333 -1.333 -0.084     11.07      0.91   18.64  -26.65    0.09    0.00   0.60
106297   40   40   0.40  93.15 400000 517 9 0.38 1.07-0.03  2.00  0.00 0.07 0.00
106298 -1.333 -1.333 -1.084     10.99      1.92   19.53  -41.54    0.12    0.00   0.60
106298  163  161   0.09  93.11 400000 619 6 0.35 1.19-0.05  1.97  0.00 0.07 0.00
106299 -1.333 -1.333 -2.084      3.50      0.84   21.81  -52.79    0.15    0.00   0.60
106299   26   21   0.19  93.09 400000 817 6 0.38 1.01-0.01  1.90  0.00 0.06 0.00
106300 -1.667 -1.667 -0.916      4.47      0.62   24.09  -31.61    0.15    0.00   0.60
106300   21   25   0.28  93.12 400000 715 9 0.39 0.85 0.00  1.83  0.00 0.06 0.00
106301 -1.667 -1.667  0.084      5.48      0.70   23.55  -19.27    0.11    0.00   0.60
106301   22   24   0.30  93.10 400000 517 9 0.35 0.99-0.00  1.85  0.00 0.06 0.00
106302 -1.333 -1.333  0.916     12.05      1.78   19.28  -10.03    0.06    0.00   0.60
106302  138  129   0.11  93.08 400000 720 4 0.39 1.26 0.01  1.98  0.00 0.07 0.00
106303 -1.667 -1.667  1.084      4.22      0.70   24.30   -5.76    0.06    0.00   0.60
106303   22   24   0.24  93.09 400000 616 9 0.30 0.91-0.01  1.82  0.00 0.06 0.00
106304 -1.333 -1.333  1.916      6.61      1.27   21.34    6.02    0.03    0.00   0.60
106304   56   54   0.13  93.04 400000 421 6 0.39 1.28-0.04  1.92  0.00 0.06 0.00
106306 -0.667 -0.667  0.084     26.60      0.55    9.21  -31.98    0.04    0.00   0.60
106306   28   28   2.54  93.10 400000 814 9 0.48 1.08 0.03  2.49  0.00 0.08 0.00
106307 -0.333 -0.333 -0.084     36.82      0.44    4.60  -44.79    0.02    0.00   0.60
106307   36   32   4.90  93.17 400000 914 8 0.54 1.26-0.03  2.90  0.00 0.10 0.00
106308 -0.667 -0.667 -0.916     19.05      0.54   10.38  -61.06    0.07    0.00   0.60
106308   26   28   1.75  93.07 400000 814 9 0.43 1.04 0.06  2.39  0.00 0.08 0.00
106310 -0.667 -0.667 -2.916      7.98      1.27   18.04  -84.80    0.14    0.00   0.60
106310  142  140   0.08  93.08 400000 817 6 0.12 1.08-0.34  2.02  0.00 0.07 0.00
106312 -0.667 -0.667 -3.916      2.70      0.82   22.97  -86.77    0.17    0.00   0.60
106312   20   19   0.14  93.04 400000 521 5 0.20 1.24 0.06  1.86  0.00 0.06 0.00
106314 -0.333 -0.333 -2.084      8.65      0.67   11.87  -99.22    0.09    0.00   0.60
106314   24   27   0.60  93.05 400000 418 9 0.68 1.27 0.18  2.26  0.00 0.08 0.00
106315 -0.333 -0.333 -1.084     11.06      0.48    7.29  -87.64    0.06    0.00   0.60
106315   33   28   1.22  93.02 4000001013 8 0.38 1.06-0.04  2.66  0.00 0.09 0.00
106320  0.333  0.333 -1.916      2.48      0.46   11.05 -147.49    0.04    0.00   0.60
106320   29   25   0.22  92.94 400000 914 8 0.45 1.01 0.05  2.33  0.00 0.08 0.00
106321  0.667  0.667 -2.084      7.27      0.56   14.35 -159.72    0.02    0.00   0.60
106321   29   29   0.45  92.98 400000 716 8 0.37 1.07-0.01  2.14  0.00 0.07 0.00
106322  1.333  1.333 -1.916      3.28      1.26   21.34 -173.98   -0.03    0.00   0.60
106322   63   61   0.07  92.97 400000 718 6 0.23 1.09-0.05  1.92  0.00 0.06 0.00
106324  0.333  0.333 -0.916     14.61      0.37    6.62 -171.07    0.01    0.00   0.60
106324   28   27   1.79  92.92 400000 814 9 0.45 1.18 0.02  2.72  0.00 0.09 0.00
106325  1.333  1.333  2.084      3.99      1.06   21.81  127.21   -0.15    0.00   0.60
106325   29   21   0.16  92.94 400000 522 4 0.37 1.33-0.15  1.90  0.00 0.06 0.00
106326  1.333  1.333  1.084      8.99      1.41   19.53  138.46   -0.12    0.00   0.60
106326  162  153   0.09  92.94 400000 916 6 0.33 0.99-0.18  1.97  0.00 0.07 0.00
106327  1.667  1.667  0.916      4.24      0.79   24.09  148.39   -0.14    0.00   0.60
106327   21   25   0.20  92.91 400000 620 5 0.41 1.16-0.07  1.83  0.00 0.06 0.00
106328  1.667  1.667 -0.084      4.81      0.68   23.55  160.73   -0.11    0.00   0.60
106328   23   24   0.25  92.95 400000 518 8 0.30 1.05-0.09  1.85  0.00 0.06 0.00
106330  1.333  1.333 -0.916      5.89      2.37   19.28  169.97   -0.06    0.00   0.60
106330  143  136   0.05  92.95 400000 520 6 0.12 1.25-0.13  1.98  0.00 0.07 0.00
106331  1.333  1.333  0.084     11.12      0.93   18.64  153.35   -0.09    0.00   0.60
106331   41   37   0.41  92.93 400000 717 7 0.40 1.07-0.09  2.00  0.00 0.07 0.00
106283  0.667  0.667  2.916      1.08      1.45   18.04   95.20   -0.14    0.00   0.60
106283  145  146   0.01  93.24 400000 521 5 0.00 1.34 0.00  2.02  0.00 0.07 0.00
106284  0.333  0.333  4.084      1.29      1.03   22.32   80.53   -0.14    0.00   0.60
106284   21   21   0.06  93.27 400000 423 4 0.00 1.38 0.00  1.89  0.00 0.06 0.00
106286  0.333  0.333  3.084      5.10      1.79   16.95   78.92   -0.12    0.00   0.60
106286  196  192   0.04  93.21 400000 619 6 0.00 1.23 0.00  2.06  0.00 0.07 0.00
106289 -0.333 -0.333  3.916      0.92      1.78   21.40   54.85   -0.10    0.00   0.60
106289   39   37   0.02  93.26 400000 423 4 0.00 1.40 0.00  1.92  0.00 0.06 0.00
106290 -0.667 -0.667  4.084      0.48      0.98   23.85   46.64   -0.10    0.00   0.60
106290   23   24   0.02  93.25 400000 423 4 0.00 1.35 0.00  1.84  0.00 0.06 0.00
106291 -0.667 -0.667  3.084      1.51      1.25   18.83   35.22   -0.05    0.00   0.60
106291   53   58   0.03  93.15 400000 521 5 0.00 1.33 0.00  2.00  0.00 0.07 0.00
106292 -0.333 -0.333  2.916     -0.35      0.84   16.08   45.40   -0.07    0.00   0.60
106292   36   34  -0.01  93.18 400000 619 6 0.00 1.25 0.00  2.09  0.00 0.07 0.00
106305 -1.333 -1.333  2.916      3.06      0.93   24.53   20.30   -0.01    0.00   0.60
106305   28   26   0.10  93.07 400000 325 3 0.00 1.46 0.00  1.82  0.00 0.06 0.00
106311 -0.333 -0.333 -4.084      1.85      0.58   22.32  -99.47    0.14    0.00   0.60
106311   19   19   0.09  92.99 400000 423 4 0.00 1.38 0.00  1.89  0.00 0.06 0.00
106313 -0.333 -0.333 -3.084      5.20      1.82   16.95 -101.08    0.12    0.00   0.60
106313  195  195   0.04  93.09 400000 619 6 0.00 1.23 0.00  2.06  0.00 0.07 0.00
106316  0.333  0.333 -3.916     -2.29      1.72   21.40 -125.15    0.10    0.00   0.60
106316   65   64  -0.04  92.99 400000 423 4 0.00 1.40 0.00  1.92  0.00 0.06 0.00
106317  0.667  0.667 -4.084      0.13      0.75   23.85 -133.36    0.10    0.00   0.60
106317   23   21   0.01  93.03 400000 423 4 0.00 1.35 0.00  1.84  0.00 0.06 0.00
106318  0.667  0.667 -3.084      0.64      1.20   18.83 -144.78    0.05    0.00   0.60
106318   57   60   0.01  93.00 400000 521 5 0.00 1.33 0.00  2.00  0.00 0.07 0.00
106319  0.333  0.333 -2.916     -1.33      0.92   16.08 -134.60    0.07    0.00   0.60
106319   43   29  -0.05  92.92 400000 619 6 0.00 1.25 0.00  2.09  0.00 0.07 0.00
106323  1.333  1.333 -2.916      4.54      1.14   24.53 -159.70    0.01    0.00   0.60
106323   25   23   0.16  92.94 400000 325 3 0.00 1.46 0.00  1.82  0.00 0.06 0.00
