106162  0.333  0.333  0.187     51.69      0.60    4.68  128.73   -0.03    0.00   0.60
106162   36   35   4.83  93.10 400000 719 5 0.66 1.73-0.06  2.89  0.00 0.10 0.00
106163  0.667  0.667  0.813     35.25      0.66   10.14  121.40   -0.07    0.00   0.60
106163   27   26   2.46  93.05 400000 619 6 0.56 1.45 0.03  2.41  0.00 0.08 0.00
106164  0.667  0.667  1.813     24.59      0.63   13.28  103.47   -0.10    0.00   0.60
106164   26   25   1.69  93.13 400000 617 8 0.54 1.16 0.05  2.18  0.00 0.07 0.00
106165  0.667  0.667  2.813     16.61      2.35   17.56   95.64   -0.13    0.00   0.60
106165  187  191   0.11  93.04 400000 421 6 0.47 1.36 0.04  2.04  0.00 0.07 0.00
106166  0.667  0.667  3.813      7.27      0.79   22.45   93.28   -0.16    0.00   0.60
106166   20   21   0.39  93.11 400000 520 6 0.41 1.19 0.01  1.88  0.00 0.06 0.00
106167  0.333  0.333  4.187      5.36      0.73   22.89   80.81   -0.16    0.00   0.60
106167   21   21   0.26  93.11 400000 521 5 0.41 1.24-0.08  1.87  0.00 0.06 0.00
106168  0.333  0.333  3.187     14.28      2.40   17.49   78.97   -0.12    0.00   0.60
106168  192  188   0.10  93.14 400000 720 4 0.37 1.30-0.15  2.04  0.00 0.07 0.00
106169  0.333  0.333  2.187     22.42      0.63   12.37   80.32   -0.08    0.00   0.60
106169   26   26   1.51  93.04 400000 718 6 0.55 1.25-0.11  2.21  0.00 0.07 0.00
106170  0.333  0.333  1.187     34.40      0.63    7.71   90.27   -0.06    0.00   0.60
106170   29   29   2.63  93.11 400000 719 5 0.67 1.58-0.14  2.62  0.00 0.09 0.00
106171 -0.333 -0.333  3.813      7.84      1.13   20.84   53.96   -0.10    0.00   0.60
106171  113  109   0.12  93.14 400000 71410 0.31 0.84 0.00  1.93  0.00 0.06 0.00
106172 -0.667 -0.667  4.187      3.76      0.59   24.39   47.69   -0.10    0.00   0.60
106172   22   23   0.21  93.11 400000 717 7 0.35 0.97-0.09  1.82  0.00 0.06 0.00
106173 -0.667 -0.667  3.187      9.08      2.27   19.33   36.52   -0.06    0.00   0.60
106173  147  146   0.07  93.18 400000 720 4 0.42 1.26-0.03  1.98  0.00 0.07 0.00
106174 -0.333 -0.333  2.813     15.55      1.32   15.54   44.29   -0.06    0.00   0.60
106174   81   85   0.28  93.14 400000 418 9 0.44 1.19 0.09  2.10  0.00 0.07 0.00
106175 -0.333 -0.333  1.813     26.94      0.66   10.55   30.80   -0.04    0.00   0.60
106175   26   28   2.14  93.13 400000 616 9 0.52 1.18 0.12  2.37  0.00 0.08 0.00
106176 -0.667 -0.667  2.187     18.53      1.03   14.78   22.07   -0.04    0.00   0.60
106176  105  105   0.33  93.12 400000 815 8 0.43 0.99-0.05  2.13  0.00 0.07 0.00
106177 -1.333 -1.333  1.813      8.86      1.09   21.07    4.44    0.03    0.00   0.60
106177   95   99   0.13  93.10 400000 916 6 0.40 0.96 0.00  1.93  0.00 0.06 0.00
106178 -1.667 -1.667  1.187      8.68      0.84   24.45   -4.36    0.07    0.00   0.60
106178   20   21   0.48  93.11 400000 419 8 0.44 1.09 0.00  1.82  0.00 0.06 0.00
106179 -1.667 -1.667  0.187      8.55      0.58   23.57  -17.91    0.10    0.00   0.60
106179   23   22   0.58  93.15 400000 914 8 0.33 0.80 0.02  1.85  0.00 0.06 0.00
106180 -1.667 -1.667 -0.813      8.32      0.71   23.97  -30.43    0.13    0.00   0.60
106180   22   21   0.56  93.16 400000 815 8 0.40 0.86-0.01  1.83  0.00 0.06 0.00
106181 -1.333 -1.333 -1.187     12.44      1.85   19.71  -42.88    0.13    0.00   0.60
106181  144  142   0.10  93.13 400000 620 5 0.42 1.24-0.04  1.97  0.00 0.07 0.00
106182 -1.333 -1.333 -2.187      9.89      0.76   22.11  -53.72    0.16    0.00   0.60
106182   19   22   0.62  93.15 400000 617 8 0.48 1.00-0.03  1.89  0.00 0.06 0.00
106183 -1.333 -1.333 -0.187     14.94      0.83   18.66  -28.31    0.09    0.00   0.60
106183   40   41   0.65  93.16 400000 914 8 0.40 0.87 0.01  2.00  0.00 0.07 0.00
106184 -1.333 -1.333  0.813     16.38      1.42   19.14  -11.75    0.06    0.00   0.60
106184  107  108   0.22  93.12 400000 717 7 0.39 1.06-0.02  1.99  0.00 0.07 0.00
106185 -0.667 -0.667  1.187     30.15      0.72   11.12    1.23    0.01    0.00   0.60
106185   28   28   2.41  93.07 400000 815 8 0.47 1.09-0.03  2.32  0.00 0.08 0.00
106186 -0.333 -0.333  0.813     41.82      0.57    6.25    5.13    0.01    0.00   0.60
106186   30   31   4.22  93.17 400000 616 9 0.60 1.37 0.15  2.75  0.00 0.09 0.00
106187 -0.667 -0.667  0.187     37.31      0.61    9.25  -28.60    0.04    0.00   0.60
106187   29   30   3.34  93.18 400000 814 9 0.46 1.08 0.00  2.49  0.00 0.08 0.00
106188 -0.333 -0.333 -0.187     53.00      0.59    4.68  -51.27    0.04    0.00   0.60
106188   36   32   5.13  93.14 400000 719 5 0.59 1.73-0.01  2.89  0.00 0.10 0.00
106189 -0.667 -0.667 -0.813     35.63      0.64   10.14  -58.60    0.07    0.00   0.60
106189   27   27   2.88  93.12 400000 716 8 0.52 1.21 0.08  2.41  0.00 0.08 0.00
106190 -0.667 -0.667 -1.813     25.45      0.70   13.28  -76.53    0.10    0.00   0.60
106190   25   26   1.79  93.16 400000 617 8 0.47 1.16 0.10  2.18  0.00 0.07 0.00
106191 -0.667 -0.667 -2.813     11.88      2.26   17.56  -84.36    0.13    0.00   0.60
106191  170  157   0.10  93.21 400000 518 8 0.42 1.15 0.06  2.04  0.00 0.07 0.00
106192 -0.667 -0.667 -3.813      6.40      0.87   22.45  -86.72    0.16    0.00   0.60
106192   21   21   0.38  93.24 400000 618 7 0.52 1.07 0.06  1.88  0.00 0.06 0.00
106193 -0.333 -0.333 -4.187      6.84      0.68   22.89  -99.19    0.16    0.00   0.60
106193   20   19   0.45  93.18 400000 717 7 0.41 1.00-0.10  1.87  0.00 0.06 0.00
106194 -0.333 -0.333 -3.187      9.31      1.58   17.49 -101.03    0.11    0.00   0.60
106194  160  148   0.09  93.22 400000 917 5 0.49 1.09-0.11  2.04  0.00 0.07 0.00
106195 -0.333 -0.333 -2.187     22.36      0.80   12.37  -99.68    0.09    0.00   0.60
106195   25   25   1.41  93.26 400000 520 6 0.57 1.40-0.09  2.21  0.00 0.07 0.00
106196 -0.333 -0.333 -1.187     34.55      0.58    7.71  -89.73    0.06    0.00   0.60
106196   27   30   2.90  93.26 400000 818 5 0.73 1.49-0.14  2.62  0.00 0.09 0.00
106197  0.333  0.333 -3.813      8.02      1.64   20.84 -126.04    0.10    0.00   0.60
106197  113  114   0.07  93.23 400000 423 4 0.32 1.42 0.10  1.93  0.00 0.06 0.00
106198  0.667  0.667 -4.187      5.10      0.83   24.39 -132.31    0.10    0.00   0.60
106198   21   22   0.28  93.26 400000 618 7 0.28 1.04-0.09  1.82  0.00 0.06 0.00
106199  0.667  0.667 -3.187     10.57      1.65   19.33 -143.48    0.06    0.00   0.60
106199  144  144   0.11  93.29 400000 716 8 0.38 1.00-0.08  1.98  0.00 0.07 0.00
106200  0.333  0.333 -2.813     16.25      1.02   15.54 -135.71    0.06    0.00   0.60
106200   79   83   0.34  93.24 400000 616 9 0.43 1.05 0.06  2.10  0.00 0.07 0.00
106201  0.333  0.333 -1.813     26.01      0.69   10.55 -149.20    0.04    0.00   0.60
106201   26   24   1.92  93.20 400000 619 6 0.54 1.42 0.12  2.37  0.00 0.08 0.00
106202  0.667  0.667 -2.187     20.20      1.17   14.78 -157.93    0.04    0.00   0.60
106202   97   97   0.35  93.27 400000 617 8 0.40 1.13-0.05  2.13  0.00 0.07 0.00
106203  1.333  1.333 -2.813      6.24      0.61   24.16 -161.08    0.00    0.00   0.60
106203   22   21   0.42  93.25 400000 715 9 0.32 0.85-0.02  1.83  0.00 0.06 0.00
106204 -1.333 -1.333  2.813      5.83      1.13   24.16   18.92    0.00    0.00   0.60
106204   24   23   0.29  93.29 400000 419 8 0.31 1.10-0.05  1.83  0.00 0.06 0.00
106205  1.333  1.333  2.187      8.94      0.85   22.11  126.28   -0.16    0.00   0.60
106205   22   22   0.48  93.33 400000 619 6 0.45 1.13-0.08  1.89  0.00 0.06 0.00
106206  1.333  1.333  1.187     14.99      1.40   19.71  137.12   -0.12    0.00   0.60
106206  138  134   0.16  93.34 400000 916 6 0.55 0.99-0.07  1.97  0.00 0.07 0.00
106207  1.667  1.667  0.813      9.19      0.87   23.97  149.57   -0.12    0.00   0.60
106207   22   21   0.49  93.34 400000 519 7 0.44 1.10-0.06  1.83  0.00 0.06 0.00
106208  1.667  1.667 -0.187      7.99      0.69   23.57  162.09   -0.10    0.00   0.60
106208   22   21   0.47  93.30 400000 717 7 0.39 0.99-0.08  1.85  0.00 0.06 0.00
106209  1.333  1.333 -0.813     12.71      1.03   19.14  168.25   -0.06    0.00   0.60
106209  114  113   0.21  93.33 4000001013 8 0.41 0.79-0.04  1.99  0.00 0.07 0.00
106210  1.333  1.333  0.187     17.11      1.26   18.66  151.69   -0.09    0.00   0.60
106210   39   37   0.55  93.38 400000 520 6 0.54 1.27-0.05  2.00  0.00 0.07 0.00
106212  0.667  0.667 -0.187     36.47      0.61    9.25  151.40   -0.04    0.00   0.60
106212   28   28   3.25  93.35 400000 815 8 0.44 1.16-0.05  2.49  0.00 0.08 0.00
